Time(s),Speed(kmph)
0.02,0
1.03,0.033
2.04,0.069
3.05,0.097
4.06,0.1
5.07,0.1
6.08,0.1
7.09,0.1
8.1,0.1
9.11,0.1
10.12,0.1
11.13,0.107
12.14,0.119
13.15,0.132
14.16,0.144
15.17,0.157
16.18,0.169
17.19,0.182
18.2,0.195
19.21,1.018
20.22,2.283
21.23,3.591
22.24,8.88
23.25,12.426
24.26,15.52
25.27,18.58
26.28,21.514
27.29,23.274
28.3,26.501
29.31,28.09
30.32,32.028
31.33,35.755
32.34,39.268
33.35,41.619
34.36,42.679
35.37,43.48
36.38,44.256
37.39,44.973
38.4,45.541
39.41,46.093
40.42,46.647
41.43,46.889
42.44,46.407
43.45,47.001
44.46,43.456
45.47,42.238
46.48,41.251
47.49,40.283
48.5,39.317
49.51,38.359
50.52,37.934
51.53,36.715
52.54,35.621
53.55,34.96
54.56,34.342
55.57,33.026
56.58,32.278
57.59,27.474
58.6,25.175
59.61,17.818
60.62,14.154
61.63,12.711
62.64,11.514
63.65,10.748
64.66,10.573
65.67,10.456
66.68,10.346
67.69,10.236
68.7,9.539
69.71,6.555
70.72,3.61
71.73,1.801
72.74,1.241
73.75,1.052
74.76,0.9
75.77,0.752
76.78,0.604
77.79,0.456
78.8,0.308
79.81,0.16
80.82,0.106
81.83,0.101
82.84,0.1
83.85,0.1
84.86,0.1
85.87,0.1
86.88,0.1
87.89,0.101
88.9,0.118
89.91,0.136
90.92,0.155
91.93,0.173
92.94,0.191
93.95,0.775
94.96,6.873
95.97,11.156
96.98,16.938
97.99,20.396
99,23.923
100.01,26.602
101.02,29.1
102.03,34.067
103.04,35.407
104.05,37.768
105.06,39.234
106.07,42.114
107.08,42.911
108.09,43.499
109.1,44.633
110.11,45.35
111.12,45.796
112.13,46.215
113.14,47.578
114.15,47.438
115.16,47.148
116.17,45.044
117.18,43.387
118.19,42.982
119.2,39.9
120.21,38.186
121.22,37.538
122.23,36.91
123.24,35.867
124.25,35.568
125.26,35.343
126.27,34.514
127.28,32.335
128.29,31.47
129.3,24.746
130.31,22.245
131.32,18.622
132.33,17.493
133.34,14.863
134.35,12.967
135.36,11.323
136.37,10.624
137.38,10.179
138.39,9.761
139.4,10.507
140.41,9.091
141.42,5.715
142.43,5.584
143.44,4.553
144.45,3.688
145.46,3.171
146.47,2.688
147.48,2.21
148.49,1.731
149.5,1.253
150.51,0.774
151.52,0.296
152.53,0.427
153.54,0.694
154.55,1.459
155.56,2.747
156.57,4.091
157.58,4.831
158.59,6.183
159.6,5.896
160.61,5.468
161.62,5.025
162.63,4.581
163.64,4.06
164.65,1.27
165.66,1.14
166.67,1.643
167.68,2.209
168.69,2.825
169.7,4.174
170.71,5.559
171.72,6.644
172.73,7.402
173.74,8.127
174.75,9.517
175.76,9.007
176.77,8.306
177.78,7.587
178.79,5.714
179.8,4.044
180.81,2.744
181.82,2.311
182.83,1.965
183.84,1.628
184.85,1.291
185.86,0.954
186.87,0.617
187.88,0.281
188.89,0.118
189.9,0.102
190.91,0.1
191.92,0.1
192.93,0.1
193.94,0.1
194.95,0.1
195.96,0.1
196.97,0.1
197.98,0.1
198.99,0.1
200,0.1
201.01,0.1
202.02,0.1
203.03,0.1
204.04,0.169
205.05,0.385
206.06,0.617
207.07,0.85
208.08,2.677
209.09,8.143
210.1,10.895
211.11,12.249
212.12,12.764
213.13,13.194
214.14,13.616
215.15,15.287
216.16,15.351
217.17,15.254
218.18,15.141
219.19,15.026
220.2,14.851
221.21,14.662
222.22,14.471
223.23,14.609
224.24,14.957
225.25,15.291
226.26,17.701
227.27,20.58
228.28,24.869
229.29,28.078
230.3,31.206
231.31,33.686
232.32,35.531
233.33,36.903
234.34,37.483
235.35,37.983
236.36,38.475
237.37,38.777
238.38,39.087
239.39,39.548
240.4,40.023
241.41,40.5
242.42,42.652
243.43,43.555
244.44,44.172
245.45,43.114
246.46,41.89
247.47,40.093
248.48,41
249.49,35.204
250.5,36.064
251.51,35.868
252.52,36.128
253.53,36.434
254.54,36.744
255.55,37.055
256.56,39.176
257.57,37.78
258.58,36.305
259.59,34.908
260.6,33.722
261.61,32.19
262.62,29.572
263.63,28.919
264.64,26.406
265.65,24.565
266.66,23.471
267.67,22.109
268.68,19.801
269.69,16.002
270.7,15.917
271.71,11.978
272.72,9.857
273.73,8.083
274.74,6.577
275.75,5.098
276.76,3.784
277.77,2.24
278.78,3.3
279.79,4.734
280.8,6.688
281.81,11.694
282.82,19.682
283.83,19.145
284.84,18.979
285.85,18.481
286.86,17.95
287.87,16.501
288.88,15.674
289.89,11.935
290.9,7.161
291.91,6.8
292.92,7.229
293.93,7.736
294.94,8.251
295.95,10.506
296.96,10.447
297.97,8.659
298.98,7.641
299.99,6.157
301,3.969
302.01,2.602
303.02,1.931
304.03,1.478
305.04,1.047
306.05,0.781
307.06,0.671
308.07,0.578
309.08,0.486
310.09,0.394
311.1,1.092
312.11,6.759
313.12,9.201
314.13,13.037
315.14,15.696
316.15,19.338
317.16,20.751
318.17,21.815
319.18,22.777
320.19,24.425
321.2,26.973
322.21,27.807
323.22,30.47
324.23,30.885
325.24,22.136
326.25,18.558
327.26,16.2
328.27,13.713
329.28,10.781
330.29,8.062
331.3,7.248
332.31,3.125
333.32,2.982
334.33,4.163
335.34,12.265
336.35,16.135
337.36,18.632
338.37,20.672
339.38,21.977
340.39,24.554
341.4,26.909
342.41,35.181
343.42,37.144
344.43,38.61
345.44,42.025
346.45,43.866
347.46,45.517
348.47,47.136
349.48,48.752
350.49,49.794
351.5,49.841
352.51,49.704
353.52,49.549
354.53,49.392
355.54,45.221
356.55,36.537
357.56,29.994
358.57,28.43
359.58,29.348
360.59,30.668
361.6,31.449
362.61,32.176
363.62,34.853
364.63,40.56
365.64,42.305
366.65,45.441
367.66,47.782
368.67,50.812
369.68,51.854
370.69,52.696
371.7,53.519
372.71,54.492
373.72,55.122
374.73,55.47
375.74,55.791
376.75,56.079
377.76,56.177
378.77,56.257
379.78,56.335
380.79,56.413
381.8,56.491
382.81,55.945
383.82,55.086
384.83,54.228
385.84,53.501
386.85,50.62
387.86,47.722
388.87,45.614
389.88,43.623
390.89,42.151
391.9,39.351
392.91,39.444
393.92,36.841
394.93,37.672
395.94,38.846
396.95,40.054
397.96,41.265
398.97,46.985
399.98,40.698
400.99,39.506
402,39.031
403.01,37.338
404.02,34.692
405.03,33.067
406.04,33.193
407.05,33.251
408.06,33.302
409.07,33.352
410.08,33.403
411.09,33.453
412.1,33.538
413.11,33.774
414.12,34.025
415.13,35.34
416.14,35.83
417.15,36.237
418.16,36.636
419.17,36.919
420.18,37.184
421.19,37.448
422.2,37.712
423.21,38.076
424.22,38.605
425.23,39.158
426.24,40.123
427.25,41.032
428.26,39.383
429.27,35.937
430.28,32.724
431.29,22.28
432.3,14.858
433.31,13.829
434.32,13.466
435.33,7.332
436.34,2.882
437.35,1.776
438.36,1.007
439.37,0.651
440.38,0.633
441.39,0.649
442.4,0.668
443.41,0.688
444.42,0.896
445.43,2.712
446.44,4.869
447.45,8.217
448.46,15.004
449.47,17.484
450.48,25.931
451.49,31.825
452.5,34.463
453.51,37.61
454.52,38.47
455.53,40.628
456.54,42.074
457.55,44.53
458.56,45.116
459.57,45.516
460.58,45.896
461.59,47.256
462.6,47.416
463.61,47.456
464.62,47.484
465.63,47.511
466.64,47.537
467.65,47.564
468.66,47.59
469.67,47.721
470.68,47.506
471.69,47.258
472.7,39.977
473.71,39.004
474.72,38.662
475.73,35.832
476.74,32.504
477.75,31.588
478.76,31.095
479.77,30.646
480.78,30.2
481.79,29.755
482.8,29.062
483.81,27.386
484.82,27.43
485.83,28.812
486.84,31.433
487.85,33.959
488.86,34.975
489.87,35.398
490.88,37.852
491.89,40.199
492.9,42.916
493.91,42.532
494.92,41.837
495.93,41.111
496.94,30.967
497.95,21.475
498.96,16.683
499.97,8.128
500.98,4.084
501.99,2.712
503,1.839
504.01,1.57
505.02,1.361
506.03,1.159
507.04,0.956
508.05,0.754
509.06,0.552
510.07,0.35
511.08,0.285
512.09,0.255
513.1,0.229
514.11,0.203
515.12,0.177
516.13,0.151
517.14,0.125
518.15,0.103
519.16,0.1
520.17,0.1
521.18,0.1
522.19,0.1
523.2,0.1
524.21,0.1
525.22,0.1
526.23,0.11
527.24,0.129
528.25,0.15
529.26,0.17
530.27,0.191
531.28,3.281
532.29,6.871
533.3,10.166
534.31,13.317
535.32,16.169
536.33,22.509
537.34,33.469
538.35,35.926
539.36,37.202
540.37,41.801
541.38,42.768
542.39,44.253
543.4,44.205
544.41,44.003
545.42,43.787
546.43,43.406
547.44,42.627
548.45,41.986
549.46,40.461
550.47,38.847
551.48,32.63
552.49,36.611
553.5,37.615
554.51,38.322
555.52,38.998
556.53,39.672
557.54,37.645
558.55,32.392
559.56,29.744
560.57,28.348
561.58,21.973
562.59,16.219
563.6,5.936
564.61,3.538
565.62,1.875
566.63,1.06
567.64,0.891
568.65,0.786
569.66,0.688
570.67,0.591
571.68,0.493
572.69,0.396
573.7,0.299
574.71,0.297
575.72,1.178
576.73,2.148
577.74,3.126
578.75,4.184
579.76,2.402
580.77,6.121
581.78,10.59
582.79,10.855
583.8,10.699
584.81,10.502
585.82,10.3
586.83,10.098
587.84,9.896
588.85,8.448
589.86,9.161
590.87,8.708
591.88,8.138
592.89,6.125
593.9,2.806
594.91,1.271
595.92,1.016
596.93,0.89
597.94,0.776
598.95,0.664
599.96,0.551
600.97,0.439
601.98,0.327
602.99,0.215
604,0.19
605.01,0.176
606.02,0.162
607.03,0.149
608.04,0.136
609.05,0.123
610.06,0.11
611.07,0.105
612.08,0.116
613.09,0.128
614.1,0.141
615.11,0.154
616.12,0.166
617.13,0.179
618.14,0.191
619.15,0.275
620.16,0.457
621.17,0.65
622.18,0.843
623.19,1.036
624.2,9.108
625.21,4.151
626.22,2.576
627.23,1.671
628.24,1.299
629.25,0.98
630.26,0.667
631.27,0.401
632.28,0.643
633.29,2.875
634.3,12.53
635.31,14.758
636.32,15.912
637.33,21.211
638.34,22.28
639.35,21.196
640.36,19.896
641.37,18.514
642.38,12.723
643.39,6.69
644.4,4.064
645.41,3.369
646.42,2.867
647.43,2.384
648.44,1.904
649.45,1.423
650.46,0.943
651.47,0.463
652.48,0.22
653.49,0.183
654.5,0.168
655.51,0.155
656.52,0.142
657.53,0.128
658.54,0.115
659.55,0.102
660.56,0.1
661.57,0.1
662.58,0.1
663.59,0.1
664.6,0.1
665.61,0.1
666.62,0.1
667.63,0.1
668.64,0.1
669.65,0.1
670.66,0.1
671.67,0.1
672.68,0.1
673.69,0.1
674.7,0.1
675.71,0.1
676.72,0.1
677.73,0.1
678.74,0.1
679.75,0.1
680.76,0.1
681.77,0.1
682.78,0.1
683.79,0.1
684.8,0.1
685.81,0.1
686.82,0.1
687.83,0.1
688.84,0.1
689.85,0.1
690.86,0.1
691.87,0.1
692.88,0.1
693.89,0.1
694.9,0.1
695.91,0.1
696.92,0.1
697.93,0.1
698.94,0.108
699.95,0.12
700.96,0.134
701.97,0.147
702.98,0.161
703.99,0.174
705,0.188
706.01,0.626
707.02,4.161
708.03,8.75
709.04,16.59
710.05,18.407
711.06,19.863
712.07,23.37
713.08,26.378
714.09,29.691
715.1,30.642
716.11,31.626
717.12,33.703
718.13,35.572
719.14,34.901
720.15,35.084
721.16,38.518
722.17,39.101
723.18,38.633
724.19,37.366
725.2,32.865
726.21,30.076
727.22,23.106
728.23,19.568
729.24,16.675
730.25,15.244
731.26,14.218
732.27,13.234
733.28,12.422
734.29,11.048
735.3,8.724
736.31,8.072
737.32,3.921
738.33,2.638
739.34,2.282
740.35,2.02
741.36,1.795
742.37,1.572
743.38,1.351
744.39,1.129
745.4,0.907
746.41,0.686
747.42,0.464
748.43,0.242
749.44,0.218
750.45,0.229
751.46,0.245
752.47,0.261
753.48,0.277
754.49,0.293
755.5,0.443
756.51,0.667
757.52,0.9
758.53,1.133
759.54,2.05
760.55,2.505
761.56,2.915
762.57,3.517
763.58,4.438
764.59,4.695
765.6,7.144
766.61,8.905
767.62,12.8
768.63,10.537
769.64,9.445
770.65,8.568
771.66,9.799
772.67,14.961
773.68,19.993
774.69,23.113
775.7,24.445
776.71,26.955
777.72,27.753
778.73,28.173
779.74,28.556
780.75,25.458
781.76,20.019
782.77,13.956
783.78,8.344
784.79,8.035
785.8,8.216
786.81,8.883
787.82,9.599
788.83,10.32
789.84,12.336
790.85,18.583
791.86,20.256
792.87,26.367
793.88,31.582
794.89,33.272
795.9,34.123
796.91,37.477
797.92,38.176
798.93,37.629
799.94,36.958
800.95,33.432
801.96,32.072
802.97,26.721
803.98,25.68
804.99,24.752
806,24.942
807.01,25.244
808.02,25.557
809.03,26.038
810.04,31.399
811.05,29.783
812.06,27.413
813.07,27.869
814.08,26.887
815.09,25.761
816.1,24.61
817.11,20.551
818.12,19.531
819.13,18.805
820.14,15.944
821.15,14.628
822.16,12.548
823.17,8.041
824.18,4.449
825.19,3.967
826.2,3.796
827.21,3.656
828.22,3.325
829.23,2.893
830.24,2.451
831.25,2.007
832.26,5.308
833.27,6.861
834.28,6.673
835.29,10.747
836.3,13.297
837.31,13.936
838.32,13.708
839.33,13.393
840.34,10.636
841.35,8.993
842.36,6.783
843.37,6.045
844.38,5.72
845.39,5.437
846.4,4.125
847.41,2.69
848.42,2.193
849.43,2.191
850.44,1.959
851.45,1.601
852.46,1.511
853.47,1.447
854.48,1.387
855.49,1.326
856.5,1.228
857.51,1.109
858.52,1.132
859.53,1.716
860.54,2.356
861.55,2.447
862.56,2.28
863.57,2.087
864.58,1.799
865.59,1.454
866.6,2.059
867.61,3.245
868.62,3.508
869.63,3.055
870.64,2.532
871.65,2.001
872.66,1.654
873.67,1.512
874.68,1.484
875.69,1.467
876.7,1.451
877.71,1.436
878.72,1.42
879.73,1.404
880.74,1.243
881.75,1.036
882.76,4.902
883.77,11.369
884.78,14.679
885.79,16.468
886.8,17.707
887.81,19.261
888.82,22.444
889.83,24.078
890.84,26.475
891.85,27.974
892.86,29.244
893.87,30.173
894.88,31.137
895.89,32.116
896.9,33.096
897.91,34.27
898.92,33.729
899.93,33.016
900.94,32.177
901.95,31.431
902.96,29.868
903.97,28.253
904.98,27.106
905.99,25.913
907,24.549
908.01,22.435
909.02,19.542
910.03,12.682
911.04,15.659
912.05,17.091
913.06,17.447
914.07,17.696
915.08,17.934
916.09,18.171
917.1,18.407
918.11,18.131
919.12,17.649
920.13,18.385
921.14,19.244
922.15,19.499
923.16,19.647
924.17,19.785
925.18,17.68
926.19,17.488
927.2,16.128
928.21,13.808
929.22,10.469
930.23,6.023
931.24,6.933
932.25,7.199
933.26,8.407
934.27,17.995
935.28,19.421
936.29,23.666
937.3,31.423
938.31,34.8
939.32,36.568
940.33,38.275
941.34,41.691
942.35,42.141
943.36,40.259
944.37,38.144
945.38,34.873
946.39,30.518
947.4,29.243
948.41,28.277
949.42,23.176
950.43,18.842
951.44,16.982
952.45,17.762
953.46,18.806
954.47,26.073
955.48,27.573
956.49,29.012
957.5,29.859
958.51,30.648
959.52,31.202
960.53,31.399
961.54,31.56
962.55,31.718
963.56,31.875
964.57,30.376
965.58,26.185
966.59,24.713
967.6,23.54
968.61,22.874
969.62,22.807
970.63,22.801
971.64,22.8
972.65,23.73
973.66,24.589
974.67,25.661
975.68,27.772
976.69,29.183
977.7,29.13
978.71,28.929
979.72,28.179
980.73,27.684
981.74,27.135
982.75,26.348
983.76,23.65
984.77,19.801
985.78,15.561
986.79,12.365
987.8,9.132
988.81,7.524
989.82,6.078
990.83,4.745
991.84,3.773
992.85,2.836
993.86,1.904
994.87,0.971
